151,43612	9,76961E-4
153,78214	5,46173E-4
156,12727	1,28959E-4
158,47152	9,44164E-4
160,81489	0,00305
163,15738	0,0027
165,49899	0,00211
167,83971	0,00281
170,17956	0,0015
172,51852	-4.184696264220078336e-04
174,85661	5,34615E-4
177,19382	1,40167E-4
179,53015	0,00328
181,8656	0,00341
184,20018	0,00148
186,53387	3,4694E-5
188,86669	0,00376
191,19863	0,00464
193,5297	0,00677
195,85989	0,013
198,1892	0,01827
200,51764	0,02422
202,84521	0,03511
205,1719	0,04738
207,49771	0,06228
209,82265	0,07833
212,14672	0,09019
214,46992	0,1016
216,79224	0,11303
219,11369	0,11949
221,43427	0,12884
223,75398	0,13501
226,07281	0,13113
228,39078	0,12351
230,70787	0,10793
233,0241	0,09141
235,33945	0,07578
237,65394	0,0627
239,96756	0,045
242,2803	0,03004
244,59218	0,0179
246,9032	0,00912
249,21334	0,00415
251,52262	7,89747E-4
253,83103	5,33168E-4
256,13857	5,20757E-4
258,44525	8,67651E-4
260,75106	3,57194E-4
263,05601	-9.497416267729226654e-05
265,36009	-4.473468162198416566e-06
267,66331	0,00258
269,96566	0,00162
272,26715	0,00257
274,56778	0,00508
276,86754	0,00445
279,16644	0,00265
281,46448	0,00248
283,76166	0,00298
286,05797	0,00113
288,35342	0,00156
290,64801	8,38544E-5
292,94175	0,00166
295,23462	0,00141
297,52663	-4.237506216065609023e-04
299,81778	-7.721390063561222542e-05
302,10807	0,00125
304,39751	0,00146
306,68608	0,00108
308,9738	7,34891E-4
311,26066	0,00302
313,54666	0,00579
315,83181	0,00723
318,11609	0,00456
320,39953	0,00469
322,6821	0,00571
324,96382	0,00639
327,24469	0,00702
329,5247	0,00792
331,80386	0,00751
334,08216	0,00846
336,35961	0,00741
338,6362	0,00638
340,91195	0,00826
343,18684	0,00592
345,46087	0,00651
347,73406	0,00656
350,00639	0,00517
352,27788	0,00416
354,54851	0,00519
356,81829	0,00282
359,08722	0,00224
361,3553	0,00223
363,62253	0,00373
365,88892	0,00592
368,15445	0,00551
370,41914	0,00752
372,68297	0,00785
374,94596	0,00702
377,2081	0,01097
379,4694	0,01488
381,72985	0,01536
383,98945	0,01783
386,24821	0,02256
388,50612	0,02434
390,76319	0,02336
393,01941	0,02477
395,27478	0,0246
397,52932	0,02545
399,783	0,02719
402,03585	0,02936
404,28785	0,03769
406,53901	0,04277
408,78933	0,04407
411,0388	0,0419
413,28744	0,03687
415,53523	0,0329
417,78218	0,02956
420,02829	0,02728
422,27356	0,02306
424,51799	0,02094
426,76158	0,01928
429,00433	0,01672
431,24624	0,0169
433,48732	0,01761
435,72755	0,01845
437,96695	0,01829
440,20551	0,01775
442,44323	0,01724
444,68012	0,01579
446,91617	0,015
449,15138	0,01349
451,38576	0,01145
453,6193	0,01318
455,85201	0,01191
458,08388	0,00814
460,31492	0,00574
462,54512	0,00655
464,7745	0,00728
467,00303	0,00824
469,23074	0,0072
471,45761	0,00886
473,68365	0,00858
475,90886	0,00757
478,13323	0,0078
480,35678	0,00668
482,57949	0,00761
484,80137	0,00848
487,02243	0,00514
489,24265	0,00476
491,46204	0,00493
493,68061	0,00589
495,89834	0,00418
498,11525	0,00717
500,33133	0,00769
502,54658	0,00526
504,761	0,00552
506,9746	0,00515
509,18737	0,00531
511,39931	0,00514
513,61043	0,00287
515,82072	0,00114
518,03018	0,00323
520,23882	0,00298
522,44664	0,00299
524,65363	0,0059
526,8598	0,00669
529,06514	0,00663
531,26966	0,00844
533,47336	0,00969
535,67623	0,00955
537,87828	0,01157
540,07951	0,0122
542,27992	0,01281
544,47951	0,01215
546,67828	0,00999
548,87622	0,01026
551,07335	0,01272
553,26965	0,01067
555,46514	0,00853
557,6598	0,0087
559,85365	0,00944
562,04668	0,00868
564,23889	0,00724
566,43028	0,00769
568,62085	0,00811
570,81061	0,00911
572,99955	0,00911
575,18767	0,00941
577,37498	0,00778
579,56147	0,00711
581,74715	0,00385
583,93201	0,00194
586,11605	0,00297
588,29928	0,00372
590,4817	0,00313
592,6633	0,00264
594,84409	0,00383
597,02406	0,00118
599,20323	9,78891E-4
601,38158	0,00211
603,55911	0,00267
605,73584	0,00392
607,91175	0,00286
610,08686	0,00495
612,26115	0,00933
614,43463	0,01621
616,6073	0,03091
618,77916	0,06343
620,95021	0,11402
623,12045	0,12856
625,28989	0,092
627,45851	0,04797
629,62633	0,0253
631,79333	0,01441
633,95953	0,01025
636,12493	0,00732
638,28951	0,00477
640,45329	0,00473
642,61626	0,00269
644,77843	0,00219
646,93979	0,00189
649,10035	0,00116
651,2601	-2.663334622490138052e-04
653,41905	1,28274E-4
655,57719	0,00152
657,73453	0,00277
659,89106	0,00335
662,04679	8,52188E-4
664,20172	0,00119
666,35584	0,00189
668,50917	2,40984E-4
670,66169	7,83543E-4
672,81341	0,00167
674,96432	7,46365E-4
677,11444	0,00173
679,26376	1,92993E-4
681,41227	8,07177E-4
683,55999	0,00178
685,7069	0,0029
687,85302	0,00226
689,99833	5,18807E-5
692,14285	8,0033E-4
694,28657	0,0027
696,42949	0,00487
698,57162	0,0064
700,71294	0,00738
702,85347	0,00686
704,9932	0,0088
707,13214	0,0095
709,27028	0,0087
711,40762	0,00869
713,54417	0,00727
715,67992	0,00737
717,81488	0,00637
719,94904	0,00984
722,08241	0,01263
724,21498	0,01613
726,34676	0,01802
728,47775	0,01833
730,60795	0,01557
732,73735	0,01613
734,86596	0,01766
736,99378	0,02206
739,1208	0,02581
741,24704	0,03265
743,37248	0,03843
745,49713	0,03846
747,621	0,03788
749,74407	0,03991
751,86635	0,04313
753,98785	0,04506
756,10855	0,0499
758,22846	0,05122
760,34759	0,05367
762,46593	0,0531
764,58348	0,05132
766,70024	0,05125
768,81622	0,04993
770,93141	0,04716
773,04581	0,04642
775,15943	0,04683
777,27226	0,04747
779,3843	0,0493
781,49556	0,05111
783,60604	0,05929
785,71572	0,06683
787,82463	0,07622
789,93275	0,08503
792,04009	0,08971
794,14664	0,09451
796,25241	0,09851
798,3574	0,09643
800,46161	0,08961
802,56503	0,07728
804,66767	0,06522
806,76953	0,05397
808,87061	0,04647
810,97091	0,04257
813,07042	0,03933
815,16916	0,03597
817,26712	0,0305
819,3643	0,02531
821,46069	0,02124
823,55631	0,01944
825,65115	0,01832
827,74522	0,01936
829,8385	0,01841
831,931	0,0196
834,02273	0,02089
836,11368	0,02391
838,20386	0,0283
840,29326	0,03091
842,38188	0,03391
844,46973	0,03334
846,5568	0,03155
848,64309	0,02824
850,72861	0,02597
852,81336	0,0238
854,89733	0,0218
856,98052	0,02273
859,06295	0,01972
861,1446	0,01838
863,22547	0,01909
865,30558	0,01969
867,38491	0,0223
869,46347	0,02182
871,54126	0,0216
873,61827	0,02114
875,69452	0,02174
877,76999	0,02263
879,84469	0,02077
881,91863	0,01823
883,99179	0,01851
886,06418	0,01897
888,1358	0,01798
890,20666	0,01813
892,27674	0,0186
894,34606	0,01925
896,41461	0,01948
898,48239	0,0231
900,54941	0,02616
902,61565	0,02876
904,68113	0,03131
906,74584	0,03262
908,80979	0,03188
910,87297	0,02945
912,93538	0,02451
914,99703	0,02121
917,05792	0,01809
919,11804	0,01735
921,17739	0,01506
923,23598	0,01484
925,29381	0,01294
927,35087	0,01346
929,40717	0,01405
931,46271	0,01469
933,51748	0,01285
935,57149	0,01362
937,62474	0,01315
939,67723	0,01316
941,72896	0,01448
943,77992	0,01242
945,83013	0,01336
947,87957	0,01531
949,92825	0,01479
951,97618	0,01377
954,02334	0,01555
956,06974	0,01533
958,11539	0,01708
960,16027	0,01933
962,2044	0,01954
964,24777	0,02193
966,29038	0,02242
968,33224	0,02288
970,37334	0,02333
972,41368	0,02344
974,45326	0,02349
976,49209	0,02743
978,53016	0,03183
980,56747	0,03481
982,60403	0,03906
984,63984	0,04676
986,67489	0,05969
988,70918	0,07884
990,74272	0,10094
992,77551	0,12384
994,80754	0,17258
996,83882	0,29323
998,86935	0,56027
1000,89912	0,89293
1002,92815	0,99933
1004,95641	0,77516
1006,98393	0,44731
1009,0107	0,28617
1011,03671	0,1456
1013,06198	0,07685
1015,08649	0,04825
1017,11025	0,03802
1019,13326	0,03948
1021,15553	0,04981
1023,17704	0,06885
1025,1978	0,10212
1027,21782	0,15468
1029,23708	0,21573
1031,2556	0,26505
1033,27337	0,27386
1035,29039	0,23731
1037,30667	0,17751
1039,3222	0,12321
1041,33698	0,08414
1043,35101	0,06188
1045,3643	0,05332
1047,37684	0,04353
1049,38863	0,03801
1051,39969	0,03515
1053,40999	0,03418
1055,41955	0,03261
1057,42837	0,03337
1059,43644	0,0348
1061,44377	0,03567
1063,45035	0,03647
1065,45619	0,03937
1067,46129	0,04109
1069,46564	0,04235
1071,46926	0,04213
1073,47213	0,03997
1075,47426	0,0389
1077,47564	0,03812
1079,47629	0,03747
1081,47619	0,03798
1083,47536	0,03968
1085,47378	0,03882
1087,47146	0,03713
1089,46841	0,03687
1091,46461	0,0356
1093,46007	0,03709
1095,4548	0,03597
1097,44879	0,03675
1099,44203	0,03719
1101,43454	0,03549
1103,42632	0,03351
1105,41735	0,02942
1107,40765	0,02642
1109,39721	0,02396
1111,38603	0,02098
1113,37412	0,01862
1115,36147	0,0169
1117,34809	0,01587
1119,33396	0,01489
1121,31911	0,01301
1123,30352	0,01285
1125,28719	0,01182
1127,27013	0,00935
1129,25234	0,00905
1131,23381	0,0097
1133,21455	0,0108
1135,19456	0,01163
1137,17383	0,01231
1139,15237	0,01231
1141,13018	0,01488
1143,10725	0,01802
1145,0836	0,02341
1147,05921	0,03035
1149,03409	0,04235
1151,00824	0,06483
1152,98166	0,08312
1154,95435	0,11081
1156,9263	0,12364
1158,89753	0,1145
1160,86803	0,09278
1162,8378	0,07057
1164,80684	0,05413
1166,77515	0,04746
1168,74274	0,04497
1170,70959	0,04792
1172,67572	0,05239
1174,64112	0,06331
1176,60579	0,08442
1178,56974	0,11554
1180,53296	0,15063
1182,49545	0,16991
1184,45722	0,16481
1186,41826	0,14908
1188,37857	0,14078
1190,33816	0,13465
1192,29703	0,13557
1194,25517	0,14364
1196,21258	0,15191
1198,16927	0,15283
1200,12524	0,15027
1202,08048	0,14467
1204,035	0,13817
1205,9888	0,1263
1207,94187	0,10963
1209,89423	0,09485
1211,84585	0,07949
1213,79676	0,06611
1215,74695	0,05473
1217,69641	0,04851
1219,64515	0,04353
1221,59318	0,04125
1223,54048	0,03959
1225,48706	0,03918
1227,43292	0,03759
1229,37806	0,03608
1231,32248	0,03245
1233,26619	0,03058
1235,20917	0,02656
1237,15144	0,02587
1239,09298	0,02572
1241,03381	0,02499
1242,97392	0,02589
1244,91332	0,0255
1246,85199	0,02579
1248,78995	0,02409
1250,72719	0,02278
1252,66372	0,02348
1254,59953	0,02317
1256,53462	0,0215
1258,469	0,02151
1260,40267	0,0228
1262,33561	0,02097
1264,26785	0,02274
1266,19937	0,02292
1268,13017	0,02141
1270,06026	0,02145
1271,98964	0,02205
1273,9183	0,02225
1275,84625	0,02263
1277,77349	0,02156
1279,70001	0,02344
1281,62583	0,02467
1283,55093	0,02487
1285,47531	0,0244
1287,39899	0,02551
1289,32196	0,02617
1291,24421	0,02778
1293,16576	0,03026
1295,08659	0,03081
1297,00671	0,03262
1298,92613	0,03343
1300,84483	0,03446
1302,76283	0,0358
1304,68011	0,03738
1306,59669	0,03919
1308,51256	0,0398
1310,42772	0,04102
1312,34217	0,04221
1314,25592	0,04321
1316,16895	0,0464
1318,08128	0,04876
1319,99291	0,05129
1321,90382	0,0558
1323,81403	0,05847
1325,72354	0,0591
1327,63233	0,06044
1329,54043	0,06032
1331,44781	0,06048
1333,3545	0,0596
1335,26047	0,05794
1337,16575	0,05368
1339,07032	0,04783
1340,97418	0,04426
1342,87734	0,03881
1344,7798	0,03514
1346,68155	0,03172
1348,58261	0,03056
1350,48296	0,02954
1352,3826	0,02823
1354,28155	0,02819
1356,17979	0,02748
1358,07733	0,02663
1359,97417	0,02731
1361,87031	0,0275
1363,76575	0,02745
1365,66049	0,02822
1367,55453	0,028
1369,44786	0,02943
1371,3405	0,02792
1373,23244	0,02836
1375,12368	0,02858
1377,01422	0,02774
1378,90406	0,02491
1380,79321	0,02331
1382,68165	0,02016
1384,5694	0,01759
1386,45645	0,01451
1388,3428	0,01085
1390,22846	0,00936
1392,11342	0,00811
1393,99768	0,0083
1395,88125	0,00815
1397,76412	0,00813
1399,64629	0,00718
1401,52777	0,00709
1403,40856	0,00625
1405,28865	0,00756
1407,16804	0,00643
1409,04674	0,0061
1410,92475	0,00705
1412,80206	0,00641
1414,67868	0,00691
1416,5546	0,00492
1418,42984	0,00572
1420,30438	0,0057
1422,17822	0,0052
1424,05138	0,0066
1425,92384	0,00818
1427,79561	0,00918
1429,66669	0,00981
1431,53708	0,01293
1433,40677	0,0163
1435,27578	0,02284
1437,14409	0,0312
1439,01172	0,03746
1440,87866	0,04255
1442,7449	0,05153
1444,61046	0,06055
1446,47532	0,06756
1448,3395	0,07517
1450,20299	0,07911
1452,06579	0,07953
1453,92791	0,07587
1455,78933	0,06542
1457,65007	0,05271
1459,51012	0,03851
1461,36948	0,02625
1463,22816	0,01999
1465,08615	0,01527
1466,94345	0,01159
1468,80007	0,01001
1470,656	0,00799
1472,51124	0,00833
1474,3658	0,00788
1476,21968	0,00688
1478,07287	0,00795
1479,92537	0,00872
1481,7772	0,00659
1483,62833	0,00473
1485,47879	0,00605
1487,32856	0,00526
1489,17764	0,00606
1491,02605	0,00821
1492,87377	0,01078
1494,72081	0,01218
1496,56716	0,01113
1498,41284	0,00906
1500,25783	0,00726
1502,10214	0,00635
1503,94577	0,00564
1505,78872	0,00396
1507,63099	0,00433
1509,47258	0,00345
1511,31348	0,00425
1513,15371	0,00425
1514,99326	0,00567
1516,83213	0,00463
1518,67032	0,006
1520,50783	0,0049
1522,34466	0,00323
1524,18081	0,00453
1526,01629	0,0051
1527,85108	0,00469
1529,6852	0,00403
1531,51864	0,00504
1533,35141	0,00315
1535,1835	0,0032
1537,01491	0,00391
1538,84564	0,00377
1540,6757	0,00374
1542,50508	0,00581
1544,33379	0,00616
1546,16182	0,00705
1547,98918	0,00619
1549,81586	0,00572
1551,64187	0,00564
1553,4672	0,00622
1555,29186	0,00618
1557,11584	0,00715
1558,93915	0,00794
1560,76179	0,00828
1562,58375	0,00845
1564,40504	0,0115
1566,22566	0,01293
1568,04561	0,01392
1569,86488	0,01705
1571,68348	0,0217
1573,50141	0,02683
1575,31867	0,03391
1577,13526	0,04465
1578,95117	0,06662
1580,76642	0,10321
1582,581	0,13495
1584,3949	0,14496
1586,20814	0,13274
1588,0207	0,10191
1589,8326	0,07699
1591,64382	0,06761
1593,45438	0,07292
1595,26427	0,09266
1597,07349	0,12955
1598,88205	0,18645
1600,68993	0,25226
1602,49715	0,29804
1604,3037	0,29537
1606,10958	0,2489
1607,91479	0,18537
1609,71934	0,12732
1611,52322	0,08766
1613,32644	0,06056
1615,12899	0,04517
1616,93087	0,03432
1618,73209	0,02942
1620,53264	0,02684
1622,33253	0,02272
1624,13176	0,02103
1625,93032	0,01831
1627,72821	0,0167
1629,52544	0,01619
1631,32201	0,01519
1633,11791	0,01398
1634,91315	0,01404
1636,70773	0,01186
1638,50164	0,01212
1640,29489	0,01308
1642,08748	0,015
1643,87941	0,01699
1645,67067	0,01988
1647,46128	0,02019
1649,25122	0,02046
1651,0405	0,01935
1652,82912	0,01728
1654,61708	0,013
1656,40438	0,01189
1658,19102	0,00935
1659,977	0,0077
1661,76231	0,00736
1663,54697	0,00535
1665,33098	0,00424
1667,11432	0,00415
1668,897	0,00402
1670,67902	0,00568
1672,46039	0,00553
1674,2411	0,00504
1676,02115	0,00503
1677,80054	0,00559
1679,57928	0,00524
1681,35736	0,00616
1683,13478	0,00565
1684,91154	0,00438
1686,68765	0,00393
1688,46311	0,00364
1690,2379	0,00482
1692,01204	0,00452
1693,78553	0,00297
1695,55836	0,00194
1697,33054	0,00202
1699,10206	0,00278
1700,87293	0,00176
1702,64314	7,77133E-4
1704,4127	0,00162
1706,1816	0,00109
1707,94986	0,00241
1709,71745	0,00253
1711,4844	0,0025
1713,25069	0,00334
1715,01633	0,0012
1716,78132	9,66912E-4
1718,54566	0,00111
1720,30934	0,00136
1722,07237	0,00236
1723,83476	0,00205
1725,59649	0,00279
1727,35757	0,00241
1729,118	0,00232
1730,87777	0,00231
1732,6369	0,00332
1734,39538	0,00235
1736,15321	0,00135
1737,91039	0,00204
1739,66692	0,00276
1741,4228	0,00182
1743,17803	0,00259
1744,93262	0,0021
1746,68655	7,41852E-4
1748,43984	0,00114
1750,19248	0,00211
1751,94447	0,00326
1753,69582	0,00134
1755,44652	0,00164
1757,19657	0,00136
1758,94597	9,33951E-4
1760,69473	0,00133
1762,44284	4,33976E-4
1764,19031	9,37905E-4
1765,93713	0,00201
1767,6833	0,00146
1769,42883	0,00264
1771,17372	0,00298
1772,91796	0,00188
1774,66155	0,0017
1776,40451	0,00122
1778,14681	0,00179
1779,88848	0,00248
1781,6295	0,0021
1783,36987	9,87252E-4
1785,1096	0,00217
1786,8487	0,00228
1788,58714	0,00127
1790,32495	0,00305
1792,06211	0,00346
1793,79863	0,00235
1795,53451	0,00236
1797,26975	0,00187
1799,00435	0,00177
1800,7383	0,0023
1802,47162	0,00199
1804,20429	0,00201
1805,93632	0,00234
1807,66772	0,00206
1809,39847	0,00243
1811,12858	0,00249
1812,85806	0,00259
1814,58689	0,00313
1816,31509	0,00235
1818,04265	0,0031
1819,76957	0,00199
1821,49585	0,00297
1823,22149	0,00237
1824,94649	0,00182
1826,67086	0,00183
1828,39459	0,00213
1830,11768	0,0021
1831,84014	0,00147
1833,56196	0,0017
1835,28314	0,00266
1837,00369	9,22998E-4
1838,7236	6,42649E-4
1840,44287	0,00259
1842,16151	0,00237
1843,87951	5,81157E-4
1845,59688	0,00163
1847,31362	5,45305E-4
1849,02971	0,00137
1850,74518	8,32364E-4
1852,46001	0,00201
1854,17421	0,00221
1855,88777	0,0026
1857,6007	0,00216
1859,31299	0,00182
1861,02465	0,00152
1862,73568	8,81138E-4
1864,44608	0,00149
1866,15585	0,00181
1867,86498	0,00218
1869,57348	0,00358
1871,28135	0,00298
1872,98858	0,00151
1874,69519	0,00163
1876,40117	-5.570776075459939886e-05
1878,10651	1,31857E-5
1879,81122	0,00177
1881,51531	0,00251
1883,21876	0,00218
1884,92158	0,00185
1886,62378	0,0016
1888,32534	0,00115
1890,02627	0,0015
1891,72658	0,0024
1893,42626	0,00189
1895,1253	0,00129
1896,82372	9,42479E-4
1898,52151	0,0019
1900,21868	0,00137
1901,91521	0,00119
1903,61112	0,00196
1905,3064	0,00255
1907,00106	0,00233
1908,69508	0,00229
1910,38849	0,00324
1912,08126	0,00312
1913,77341	0,0022
1915,46493	0,00242
1917,15583	0,0019
1918,8461	0,00215
1920,53574	0,00323
1922,22476	0,00266
1923,91316	0,00271
1925,60093	0,00395
1927,28808	0,00412
1928,9746	0,00292
1930,6605	0,00296
1932,34577	0,00377
1934,03043	0,00272
1935,71445	0,00317
1937,39786	0,00261
1939,08064	0,00186
1940,7628	0,0024
1942,44434	0,00103
1944,12525	0,00146
1945,80555	0,00202
1947,48522	0,00171
1949,16427	0,00264
1950,8427	0,00273
1952,5205	0,00261
1954,19769	0,00239
1955,87425	0,00292
1957,5502	0,00278
1959,22553	0,00269
1960,90023	0,00307
1962,57432	0,00214
1964,24778	0,00152
1965,92063	0,00204
1967,59285	0,00318
1969,26446	0,00227
1970,93545	0,00318
1972,60582	0,00318
1974,27558	0,00247
1975,94471	9,81249E-4
1977,61323	8,75561E-4
1979,28113	5,78014E-4
1980,94841	9,0751E-4
1982,61507	8,63832E-4
1984,28112	0,00244
1985,94655	0,00161
1987,61137	0,00211
1989,27557	0,00231
1990,93915	0,00255
1992,60211	0,00133
1994,26446	0,00255
1995,9262	0,00235
1997,58732	0,00237
1999,24782	0,00173
2000,90771	0,00182
2002,56699	0,00197
2004,22565	0,00155
2005,8837	0,00191
2007,54113	0,00304
2009,19795	0,00176
2010,85415	0,0022
2012,50974	7,15461E-4
2014,16472	-4.268109228141243384e-04
2015,81909	7,42915E-4
2017,47284	0,00153
2019,12598	0,00225
2020,77851	0,0016
2022,43043	0,00253
2024,08173	0,00294
2025,73243	0,00348
2027,38251	0,0026
2029,03198	0,00243
2030,68084	0,00256
2032,32909	0,00152
2033,97673	0,00227
2035,62375	9,91092E-4
2037,27017	0,00108
2038,91598	0,00179
2040,56118	0,00147
2042,20577	0,00172
2043,84974	0,00255
2045,49312	0,00174
2047,13588	0,00189
2048,77803	0,00247
2050,41957	0,00123
2052,06051	0,00187
2053,70084	0,00283
2055,34056	0,00211
2056,97967	0,00251
2058,61818	0,00184
2060,25607	0,00196
2061,89336	0,00188
2063,53005	0,00182
2065,16613	0,00168
2066,8016	0,00174
2068,43646	0,00156
2070,07072	0,00333
2071,70438	0,00252
2073,33742	3,64079E-4
2074,96987	2,13749E-4
2076,60171	0,00184
2078,23294	0,00159
2079,86357	0,00224
2081,49359	0,0019
2083,12301	0,00241
2084,75182	0,00315
2086,38004	0,00283
2088,00764	0,00287
2089,63465	3,52401E-4
2091,26105	0,00193
2092,88685	0,00201
2094,51204	0,00103
2096,13664	0,00135
2097,76063	0,00229
2099,38402	0,00346
2101,0068	0,00237
2102,62899	0,0031
2104,25057	0,0033
2105,87155	0,00198
2107,49193	0,00146
2109,11171	0,00106
2110,73089	0,00215
2112,34947	0,00261
2113,96745	0,00127
2115,58483	0,00222
2117,2016	0,00192
2118,81778	0,00245
2120,43336	9,77451E-4
2122,04834	0,00142
2123,66272	0,00267
2125,2765	0,00148
2126,88969	0,00124
2128,50227	0,00172
2130,11426	0,00238
2131,72564	8,8836E-4
2133,33643	0,00277
2134,94663	0,00306
2136,55622	0,00161
2138,16522	0,00193
2139,77362	0,00122
2141,38143	8,9202E-4
2142,98863	0,00135
2144,59524	0,00277
2146,20126	0,00279
2147,80668	0,00361
2149,4115	0,00339
2151,01573	0,0015
2152,61936	0,00169
2154,2224	0,00132
2155,82484	3,09823E-4
2157,42669	0,00113
2159,02794	0,00242
2160,6286	0,00319
2162,22866	0,00364
2163,82813	0,00201
2165,42701	0,00151
2167,02529	0,00273
2168,62298	0,00275
2170,22007	0,00117
2171,81658	6,16389E-4
2173,41249	0,00262
2175,0078	0,00243
2176,60253	0,00363
2178,19666	0,00187
2179,7902	0,00188
2181,38315	0,00113
2182,97551	0,0014
2184,56728	0,00167
2186,15845	0,00248
2187,74903	0,00294
2189,33903	0,00225
2190,92843	8,04418E-4
2192,51724	0,00107
2194,10547	0,00145
2195,6931	0,00189
2197,28014	0,00181
2198,86659	0,00216
2200,45246	0,00275
2202,03773	0,00298
2203,62242	0,00303
2205,20651	0,00194
2206,79002	0,00163
2208,37294	0,00272
2209,95527	0,00203
2211,53702	0,0032
2213,11817	0,00231
2214,69874	0,00241
2216,27872	0,00287
2217,85811	0,00123
2219,43692	0,00123
2221,01514	0,00182
2222,59277	0,0024
2224,16982	0,00188
2225,74628	7,27567E-4
2227,32216	9,76357E-4
2228,89744	0,00236
2230,47215	0,00152
2232,04627	7,73411E-4
2233,6198	9,51051E-4
2235,19275	0,00218
2236,76511	0,00176
2238,33689	0,00336
2239,90808	0,0021
2241,47869	0,00203
2243,04871	0,00174
2244,61816	0,001
2246,18701	0,00109
2247,75529	0,00224
2249,32298	0,00218
2250,89009	0,00251
2252,45661	0,00223
2254,02256	0,00278
2255,58792	0,00272
2257,1527	6,58761E-4
2258,71689	7,2539E-4
2260,28051	0,0015
2261,84354	0,00135
2263,40599	0,0021
2264,96786	7,65576E-4
2266,52915	0,00201
2268,08985	0,00239
2269,64998	0,00161
2271,20953	0,00261
2272,76849	0,00271
2274,32688	0,0028
2275,88469	0,00107
2277,44191	0,00191
2278,99856	0,00147
2280,55463	0,00243
2282,11011	7,90856E-4
2283,66502	0,0014
2285,21935	0,00193
2286,77311	0,00289
2288,32628	0,00269
2289,87887	0,00207
2291,43089	0,00219
2292,98233	0,00155
2294,53319	0,00209
2296,08348	0,00233
2297,63319	0,00181
2299,18232	0,0018
2300,73087	0,00192
2302,27885	0,00217
2303,82625	0,0023
2305,37307	0,00323
2306,91932	0,00212
2308,46499	0,00236
2310,01009	0,00261
2311,55461	0,00314
2313,09855	0,00316
2314,64192	0,00395
2316,18472	0,00381
2317,72694	0,00203
2319,26859	0,00333
2320,80966	0,00326
2322,35016	0,00282
2323,89008	0,00349
2325,42943	0,00229
2326,96821	0,00246
2328,50641	0,00301
2330,04404	0,00388
2331,58109	0,00307
2333,11758	0,00294
2334,65349	0,00211
2336,18883	0,00226
2337,72359	0,00303
2339,25779	0,00241
2340,79141	0,00223
2342,32446	0,00286
2343,85694	0,00224
2345,38885	0,0017
2346,92019	0,00264
2348,45095	0,00365
2349,98115	0,00383
2351,51077	0,00354
2353,03983	0,0038
2354,56831	0,00297
2356,09622	0,00241
2357,62357	0,00206
2359,15034	0,00238
2360,67655	0,00364
2362,20218	0,00401
2363,72725	0,00253
2365,25175	0,00313
2366,77568	0,00309
2368,29904	0,00378
2369,82183	0,00357
2371,34406	0,00337
2372,86571	0,00207
2374,3868	0,0031
2375,90732	0,0044
2377,42727	0,00384
2378,94666	0,00335
2380,46548	0,00206
2381,98373	0,00322
2383,50142	0,00366
2385,01854	0,00305
2386,53509	0,00346
2388,05108	0,00342
2389,5665	0,00385
2391,08136	0,00232
2392,59565	0,00413
2394,10937	0,0047
2395,62253	0,00468
2397,13512	0,00325
2398,64715	0,00244
2400,15862	0,00363
2401,66952	0,0045
2403,17986	0,00327
2404,68963	0,00279
2406,19884	0,00373
2407,70748	0,00344
2409,21556	0,00293
2410,72308	0,00248
2412,23004	0,00339
2413,73643	0,00372
2415,24226	0,00297
2416,74753	0,00323
2418,25223	0,00402
2419,75637	0,00317
2421,25995	0,00399
2422,76297	0,00235
2424,26543	0,00405
2425,76732	0,00412
2427,26866	0,00465
2428,76943	0,0042
2430,26964	0,00296
2431,76929	0,0037
2433,26838	0,00308
2434,76691	0,00351
2436,26488	0,00367
2437,76229	0,00426
2439,25914	0,00453
2440,75544	0,0033
2442,25117	0,00365
2443,74634	0,00354
2445,24095	0,00394
2446,735	0,00545
2448,2285	0,00477
2449,72144	0,00442
2451,21381	0,00378
2452,70563	0,00546
2454,1969	0,00414
2455,6876	0,00513
2457,17775	0,00419
2458,66734	0,00508
2460,15637	0,00366
2461,64484	0,0036
2463,13276	0,00452
2464,62012	0,00413
2466,10692	0,00342
2467,59317	0,0026
2469,07886	0,00313
2470,564	0,00254
2472,04858	0,00325
2473,5326	0,00344
2475,01607	0,00423
2476,49899	0,005
2477,98134	0,00544
2479,46315	0,00489
2480,9444	0,00608
2482,42509	0,00489
2483,90523	0,00536
2485,38482	0,00455
2486,86385	0,00544
2488,34232	0,00464
2489,82025	0,00497
2491,29762	0,00388
2492,77443	0,0041
2494,2507	0,00423
2495,72641	0,00493
2497,20157	0,00535
2498,67617	0,0053
2500,15022	0,00386
2501,62372	0,00378
2503,09667	0,00448
2504,56907	0,004
2506,04091	0,0032
2507,51221	0,00364
2508,98295	0,00452
2510,45314	0,00461
2511,92278	0,00421
2513,39187	0,00444
2514,86041	0,00409
2516,32839	0,00364
2517,79583	0,00334
2519,26272	0,00348
2520,72905	0,00386
2522,19484	0,004
2523,66008	0,00564
2525,12477	0,00546
2526,58891	0,00386
2528,0525	0,00328
2529,51554	0,00459
2530,97803	0,00382
2532,43997	0,00448
2533,90137	0,00344
2535,36221	0,00416
2536,82251	0,00462
2538,28226	0,00448
2539,74147	0,00431
2541,20012	0,00589
2542,65823	0,0052
2544,11579	0,00464
2545,57281	0,00546
2547,02927	0,00524
2548,48519	0,00472
2549,94057	0,00467
2551,3954	0,00461
2552,84968	0,00629
2554,30342	0,0063
2555,75661	0,00588
2557,20925	0,00585
2558,66135	0,00469
2560,1129	0,00522
2561,56391	0,005
2563,01438	0,00615
2564,46429	0,00652
2565,91367	0,00545
2567,3625	0,00594
2568,81079	0,00602
2570,25853	0,00718
2571,70573	0,00593
2573,15238	0,00628
2574,59849	0,00592
2576,04406	0,00706
2577,48908	0,00639
2578,93356	0,00686
2580,3775	0,00627
2581,8209	0,00594
2583,26375	0,00694
2584,70606	0,00618
2586,14783	0,00732
2587,58906	0,00609
2589,02974	0,00567
2590,46989	0,00576
2591,90949	0,00634
2593,34855	0,00719
2594,78707	0,00661
2596,22505	0,00768
2597,66248	0,00764
2599,09938	0,00724
2600,53574	0,00758
2601,97155	0,00811
2603,40683	0,00852
2604,84157	0,00863
2606,27576	0,00893
2607,70942	0,00839
2609,14254	0,00877
2610,57512	0,00779
2612,00716	0,00816
2613,43866	0,00805
2614,86962	0,00867
2616,30004	0,00872
2617,72993	0,00914
2619,15927	0,00887
2620,58808	0,00809
2622,01635	0,00765
2623,44408	0,00695
2624,87128	0,00819
2626,29794	0,00658
2627,72406	0,0072
2629,14964	0,0066
2630,57469	0,0073
2631,9992	0,00633
2633,42317	0,00705
2634,84661	0,00656
2636,26951	0,00559
2637,69188	0,00706
2639,1137	0,00758
2640,535	0,00714
2641,95576	0,00834
2643,37598	0,00736
2644,79566	0,00768
2646,21482	0,00688
2647,63343	0,00754
2649,05152	0,00624
2650,46907	0,0058
2651,88608	0,00611
2653,30256	0,00709
2654,7185	0,00645
2656,13392	0,00689
2657,54879	0,00595
2658,96314	0,00669
2660,37695	0,00611
2661,79023	0,00632
2663,20297	0,00645
2664,61518	0,00563
2666,02686	0,00544
2667,43801	0,00628
2668,84862	0,00581
2670,25871	0,00613
2671,66826	0,00549
2673,07727	0,00618
2674,48576	0,00647
2675,89372	0,00587
2677,30114	0,00699
2678,70803	0,00581
2680,11439	0,00688
2681,52022	0,00608
2682,92552	0,00532
2684,33029	0,00527
2685,73453	0,00528
2687,13824	0,0066
2688,54142	0,00677
2689,94407	0,00573
2691,34619	0,00577
2692,74778	0,00739
2694,14884	0,00769
2695,54937	0,00632
2696,94937	0,00662
2698,34884	0,00556
2699,74779	0,00593
2701,1462	0,00624
2702,54409	0,00506
2703,94145	0,00526
2705,33828	0,00652
2706,73458	0,00541
2708,13036	0,00678
2709,52561	0,00533
2710,92033	0,00639
2712,31452	0,00626
2713,70818	0,007
2715,10132	0,00597
2716,49394	0,00646
2717,88602	0,00646
2719,27758	0,00577
2720,66861	0,00623
2722,05912	0,00651
2723,4491	0,00737
2724,83855	0,00799
2726,22748	0,00816
2727,61589	0,00928
2729,00377	0,00814
2730,39112	0,00943
2731,77795	0,0095
2733,16425	0,00884
2734,55003	0,00835
2735,93528	0,00821
2737,32001	0,00807
2738,70422	0,00738
2740,0879	0,0077
2741,47106	0,0061
2742,85369	0,00764
2744,2358	0,00724
2745,61739	0,0063
2746,99845	0,00749
2748,379	0,00695
2749,75901	0,00595
2751,13851	0,00633
2752,51748	0,00632
2753,89593	0,00635
2755,27386	0,00545
2756,65126	0,0066
2758,02815	0,00582
2759,40451	0,00462
2760,78035	0,00713
2762,15567	0,00697
2763,53047	0,00623
2764,90474	0,00668
2766,2785	0,00567
2767,65173	0,00661
2769,02445	0,00609
2770,39664	0,0055
2771,76832	0,00656
2773,13947	0,00662
2774,5101	0,00699
2775,88021	0,00764
2777,24981	0,00849
2778,61888	0,00756
2779,98744	0,00665
2781,35547	0,00687
2782,72299	0,00658
2784,08998	0,00724
2785,45646	0,00822
2786,82242	0,00798
2788,18786	0,00643
2789,55279	0,00612
2790,91719	0,0072
2792,28108	0,00652
2793,64445	0,00632
2795,0073	0,00579
2796,36963	0,00657
2797,73145	0,00692
2799,09275	0,00625
2800,45353	0,00508
2801,8138	0,00494
2803,17355	0,00459
2804,53278	0,00538
2805,89149	0,00627
2807,24969	0,00556
2808,60738	0,007
2809,96454	0,00833
2811,3212	0,00844
2812,67733	0,00865
2814,03295	0,00799
2815,38806	0,00833
2816,74265	0,00828
2818,09672	0,00808
2819,45028	0,00832
2820,80333	0,00967
2822,15586	0,00995
2823,50788	0,00855
2824,85938	0,00946
2826,21037	0,00956
2827,56084	0,00893
2828,9108	0,0101
2830,26025	0,01033
2831,60918	0,01054
2832,9576	0,01258
2834,30551	0,01453
2835,65291	0,01705
2836,99979	0,01936
2838,34616	0,02336
2839,69201	0,02807
2841,03736	0,03245
2842,38219	0,03507
2843,72651	0,03957
2845,07031	0,04626
2846,41361	0,05215
2847,75639	0,05752
2849,09867	0,06128
2850,44043	0,06465
2851,78168	0,06707
2853,12242	0,06827
2854,46265	0,06671
2855,80237	0,06599
2857,14157	0,06549
2858,48027	0,06227
2859,81846	0,06006
2861,15613	0,05847
2862,4933	0,05571
2863,82996	0,0546
2865,1661	0,05346
2866,50174	0,05213
2867,83687	0,05199
2869,17149	0,05144
2870,5056	0,05216
2871,8392	0,05089
2873,1723	0,05135
2874,50488	0,05291
2875,83696	0,05447
2877,16852	0,05583
2878,49958	0,05679
2879,83014	0,05882
2881,16018	0,0615
2882,48972	0,06533
2883,81874	0,06836
2885,14727	0,07417
2886,47528	0,07836
2887,80279	0,0846
2889,12979	0,09064
2890,45628	0,09733
2891,78227	0,1034
2893,10775	0,11087
2894,43272	0,11648
2895,75719	0,12308
2897,08116	0,12828
2898,40461	0,13394
2899,72756	0,13791
2901,05001	0,13953
2902,37195	0,14217
2903,69338	0,14231
2905,01431	0,14173
2906,33474	0,14129
2907,65466	0,14139
2908,97407	0,14149
2910,29298	0,13902
2911,61139	0,13869
2912,92929	0,13736
2914,24669	0,13502
2915,56358	0,13315
2916,87998	0,12859
2918,19586	0,127
2919,51125	0,12498
2920,82613	0,12256
2922,1405	0,12008
2923,45438	0,11729
2924,76775	0,11477
2926,08062	0,11154
2927,39299	0,10931
2928,70485	0,10518
2930,01621	0,10145
2931,32707	0,09723
2932,63743	0,09449
2933,94728	0,08932
2935,25664	0,08636
2936,56549	0,08277
2937,87384	0,07974
2939,18169	0,07611
2940,48904	0,072
2941,79589	0,06838
2943,10224	0,06368
2944,40808	0,06016
2945,71343	0,05563
2947,01828	0,05348
2948,32262	0,05063
2949,62647	0,04848
2950,92981	0,04877
2952,23266	0,04691
2953,53501	0,04701
2954,83685	0,04531
2956,1382	0,04401
2957,43905	0,04232
2958,7394	0,04219
2960,03925	0,04281
2961,3386	0,04246
2962,63745	0,04306
2963,93581	0,04272
2965,23367	0,04248
2966,53103	0,04309
2967,82789	0,04182
2969,12425	0,04287
2970,42011	0,04459
2971,71548	0,04792
2973,01035	0,05027
2974,30473	0,05525
2975,5986	0,05852
2976,89198	0,06009
2978,18486	0,06049
2979,47725	0,05709
2980,76914	0,05293
2982,06053	0,04651
2983,35143	0,04253
2984,64183	0,03712
2985,93173	0,03547
2987,22114	0,03295
2988,51005	0,03057
2989,79847	0,02915
2991,08639	0,02892
2992,37382	0,02946
2993,66075	0,03139
2994,94719	0,0348
2996,23313	0,03863
2997,51857	0,04278
2998,80353	0,04948
3000,08799	0,05453
3001,37195	0,05763
3002,65542	0,05892
3003,9384	0,05796
3005,22088	0,05361
3006,50287	0,04744
3007,78436	0,04234
3009,06536	0,03897
3010,34587	0,0363
3011,62589	0,03459
3012,90541	0,03459
3014,18444	0,03418
3015,46298	0,03619
3016,74102	0,03736
3018,01858	0,04098
3019,29564	0,04715
3020,5722	0,05152
3021,84828	0,05464
3023,12386	0,06202
3024,39896	0,07174
3025,67356	0,08165
3026,94767	0,09256
3028,22129	0,103
3029,49441	0,11519
3030,76705	0,12634
3032,0392	0,13693
3033,31085	0,14844
3034,58202	0,15891
3035,85269	0,16991
3037,12287	0,17709
3038,39257	0,18271
3039,66177	0,18623
3040,93048	0,19037
3042,19871	0,19253
3043,46644	0,20045
3044,73369	0,216
3046,00045	0,23707
3047,26671	0,26897
3048,53249	0,30483
3049,79778	0,34053
3051,06258	0,36812
3052,32689	0,3856
3053,59072	0,3942
3054,85405	0,39437
3056,1169	0,39013
3057,37926	0,38807
3058,64113	0,38307
3059,90251	0,3796
3061,16341	0,37041
3062,42382	0,35964
3063,68374	0,34227
3064,94317	0,32083
3066,20212	0,29452
3067,46058	0,26467
3068,71856	0,2361
3069,97604	0,20887
3071,23304	0,18297
3072,48956	0,1603
3073,74559	0,14083
3075,00113	0,12304
3076,25619	0,10843
3077,51076	0,09579
3078,76484	0,08558
3080,01844	0,0763
3081,27155	0,06923
3082,52418	0,06349
3083,77633	0,05992
3085,02799	0,0549
3086,27916	0,05188
3087,52985	0,04728
3088,78005	0,04254
3090,02977	0,03861
3091,27901	0,03566
3092,52776	0,03241
3093,77603	0,03171
3095,02381	0,03047
3096,27112	0,02829
3097,51793	0,02661
3098,76427	0,02596
3100,01012	0,02506
3101,25548	0,02371
3102,50037	0,02342
3103,74477	0,0241
3104,98869	0,02235
3106,23212	0,02231
3107,47508	0,02148
3108,71755	0,01901
3109,95954	0,01887
3111,20105	0,01845
3112,44207	0,01685
3113,68261	0,01535
3114,92268	0,01462
3116,16226	0,01442
3117,40135	0,01447
3118,63997	0,01336
3119,87811	0,01252
3121,11576	0,01132
3122,35294	0,01178
3123,58963	0,01154
3124,82585	0,01067
3126,06158	0,01128
3127,29683	0,00997
3128,5316	0,01005
3129,7659	0,01005
3130,99971	0,0104
3132,23304	0,00923
3133,4659	0,01011
3134,69827	0,00938
3135,93016	0,00954
3137,16158	0,00931
3138,39252	0,00863
3139,62297	0,00789
3140,85295	0,00885
3142,08245	0,00975
3143,31147	0,01
3144,54002	0,00876
3145,76808	0,00844
3146,99567	0,0091
3148,22278	0,00962
3149,44941	0,00905
3150,67556	0,01062
3151,90124	0,00947
3153,12643	0,00944
3154,35115	0,00923
3155,5754	0,01084
3156,79916	0,01161
3158,02245	0,0122
3159,24527	0,01294
3160,4676	0,01586
3161,68946	0,0164
3162,91084	0,01676
3164,13175	0,01573
3165,35218	0,01522
3166,57214	0,01533
3167,79161	0,01416
3169,01062	0,0135
3170,22915	0,01403
3171,4472	0,01155
3172,66477	0,01023
3173,88188	0,00841
3175,0985	0,00909
3176,31465	0,00871
3177,53033	0,00863
3178,74553	0,00832
3179,96026	0,00718
3181,17451	0,00636
3182,38829	0,00682
3183,6016	0,00707
3184,81443	0,00772
3186,02678	0,00702
3187,23867	0,00823
3188,45007	0,00775
3189,66101	0,00833
3190,87147	0,00837
3192,08146	0,00886
3193,29098	0,00891
3194,50002	0,00952
3195,70859	0,00965
3196,91669	0,01111
3198,12431	0,01122
3199,33147	0,01181
3200,53815	0,01075
3201,74436	0,01083
3202,95009	0,01241
3204,15536	0,01221
3205,36015	0,01095
3206,56447	0,01084
3207,76832	0,00974
3208,9717	0,00998
3210,1746	0,00942
3211,37704	0,00924
3212,579	0,0087
3213,7805	0,00752
3214,98152	0,00556
3216,18207	0,00439
3217,38215	0,00417
3218,58176	0,00406
3219,78091	0,00496
3220,97958	0,00366
3222,17778	0,00401
3223,37551	0,00392
3224,57277	0,0037
3225,76956	0,00391
3226,96588	0,0043
3228,16174	0,00391
3229,35712	0,0041
3230,55204	0,0042
3231,74648	0,00426
3232,94046	0,00468
3234,13397	0,0039
3235,32701	0,00368
3236,51958	0,00377
3237,71168	0,00457
3238,90332	0,00394
3240,09448	0,00314
3241,28518	0,00421
3242,47541	0,00342
3243,66518	0,00302
3244,85447	0,00319
3246,0433	0,0022
3247,23166	0,00232
3248,41956	0,00383
3249,60698	0,00241
3250,79394	0,00309
3251,98044	0,00354
3253,16646	0,00318
3254,35202	0,0023
3255,53712	0,00241
3256,72175	0,00359
3257,90591	0,00217
3259,0896	0,00213
3260,27283	0,0031
3261,4556	0,00212
3262,63789	0,00292
3263,81973	0,00227
3265,00109	0,00222
3266,182	0,00325
3267,36243	0,00371
3268,54241	0,00283
3269,72191	0,00227
3270,90096	0,00409
3272,07953	0,0032
3273,25765	0,00346
3274,4353	0,00365
3275,61248	0,00412
3276,7892	0,00329
3277,96546	0,00371
3279,14125	0,00366
3280,31658	0,003
3281,49144	0,00255
3282,66585	0,00397
3283,83978	0,00404
3285,01326	0,00291
3286,18627	0,00399
3287,35882	0,0031
3288,53091	0,00318
3289,70253	0,00308
3290,87369	0,00302
3292,04439	0,00369
3293,21463	0,00362
3294,3844	0,00261
3295,55371	0,00238
3296,72256	0,0017
3297,89095	0,00261
3299,05888	0,00253
3300,22634	0,00236
3301,39334	0,00268
3302,55989	0,00348
3303,72597	0,00264
3304,89159	0,00297
3306,05674	0,00298
3307,22144	0,00369
3308,38568	0,00268
3309,54946	0,00307
3310,71277	0,00253
3311,87563	0,004
3313,03802	0,00341
3314,19996	0,00265
3315,36143	0,00302
3316,52245	0,00288
3317,683	0,0039
3318,8431	0,00255
3320,00273	0,00239
3321,16191	0,00371
3322,32063	0,00362
3323,47889	0,00308
3324,63668	0,00389
3325,79402	0,00288
3326,95091	0,00266
3328,10733	0,00392
3329,26329	0,00342
3330,4188	0,00256
3331,57385	0,00212
3332,72844	0,00234
3333,88257	0,00345
3335,03624	0,00315
3336,18946	0,00248
3337,34222	0,00221
3338,49452	0,00353
3339,64636	0,00237
3340,79775	0,00251
3341,94867	0,00308
3343,09915	0,00285
3344,24916	0,00403
3345,39872	0,00339
3346,54782	0,00377
3347,69646	0,00322
3348,84465	0,00402
3349,99238	0,00288
3351,13966	0,00259
3352,28648	0,00255
3353,43284	0,00231
3354,57875	0,00305
3355,7242	0,00259
3356,8692	0,00223
3358,01374	0,00387
3359,15782	0,00303
3360,30145	0,00318
3361,44463	0,00348
3362,58735	0,00288
3363,72961	0,00345
3364,87142	0,00279
3366,01278	0,00321
3367,15368	0,00316
3368,29412	0,00248
3369,43412	0,0022
3370,57365	0,00296
3371,71274	0,00323
3372,85137	0,00261
3373,98954	0,00335
3375,12727	0,00255
3376,26454	0,00253
3377,40135	0,00297
3378,53771	0,00337
3379,67362	0,00321
3380,80908	0,00264
3381,94408	0,00386
3383,07863	0,00365
3384,21273	0,00425
3385,34637	0,00327
3386,47956	0,00459
3387,6123	0,00451
3388,74459	0,00419
3389,87643	0,00357
3391,00781	0,00283
3392,13874	0,00271
3393,26922	0,00354
3394,39925	0,0028
3395,52882	0,00349
3396,65795	0,00329
3397,78662	0,00293
3398,91484	0,00322
3400,04262	0,00273
3401,16994	0,00185
3402,2968	0,0022
3403,42322	0,00241
3404,54919	0,002
3405,67471	0,00214
3406,79978	0,00228
3407,92439	0,00131
3409,04856	0,00133
3410,17228	0,00142
3411,29554	0,00192
3412,41836	0,00145
3413,54073	0,00298
3414,66264	0,00191
3415,78411	0,00265
3416,90513	0,00294
3418,0257	0,0031
3419,14582	0,0041
3420,26549	0,00407
3421,38471	0,00388
3422,50349	0,00462
3423,62181	0,00348
3424,73969	0,00313
3425,85712	0,00441
3426,9741	0,00488
3428,09063	0,00478
3429,20671	0,00366
3430,32235	0,00344
3431,43754	0,00427
3432,55228	0,00336
3433,66657	0,00455
3434,78042	0,00306
3435,89382	0,00445
3437,00677	0,00304
3438,11927	0,00434
3439,23133	0,00348
3440,34294	0,00315
3441,4541	0,00322
3442,56481	0,00278
3443,67508	0,00351
3444,78491	0,00284
3445,89428	0,0028
3447,00321	0,0024
3448,1117	0,00228
3449,21974	0,00276
3450,32733	0,00154
3451,43448	0,00138
3452,54118	0,00178
3453,64743	0,00204
3454,75324	0,00237
3455,85861	0,00257
3456,96353	0,00238
3458,068	0,00166
3459,17203	0,00253
3460,27562	0,00183
3461,37876	0,00195
3462,48146	0,00282
3463,58371	0,00295
3464,68551	0,00288
3465,78688	0,00244
3466,88779	0,00237
3467,98827	0,00225
3469,0883	0,00358
3470,18789	0,0035
3471,28703	0,00314
3472,38573	0,00344
3473,48398	0,00243
3474,5818	0,003
3475,67917	0,00278
3476,77609	0,00191
3477,87258	0,0028
3478,96862	0,00389
3480,06421	0,00218
3481,15937	0,00352
3482,25408	0,00229
3483,34835	0,0027
3484,44218	0,00256
3485,53556	0,00332
3486,6285	0,00341
3487,72101	0,00409
3488,81306	0,00462
3489,90468	0,00353
3490,99586	0,00362
3492,08659	0,00439
3493,17688	0,0055
3494,26674	0,0045
3495,35615	0,00593
3496,44511	0,00522
3497,53364	0,00473
3498,62173	0,0053
3499,70938	0,00461
3500,79658	0,00308
3501,88335	0,00366
3502,96967	0,00308
3504,05555	0,00364
3505,141	0,00198
3506,226	0,00261
3507,31057	0,00228
3508,39469	0,00294
3509,47837	0,00325
3510,56162	0,00271
3511,64442	0,00275
3512,72679	0,00134
3513,80872	0,00143
3514,8902	0,00121
3515,97125	0,00124
3517,05186	0,00146
3518,13203	0,00298
3519,21176	0,00233
3520,29105	0,00292
3521,36991	0,00178
3522,44832	0,00227
3523,5263	0,00332
3524,60384	0,00305
3525,68094	0,00254
3526,7576	0,00333
3527,83383	0,00327
3528,90961	0,00298
3529,98496	0,0017
3531,05987	0,00285
3532,13435	0,00213
3533,20838	0,00184
3534,28198	0,00144
3535,35515	4,11329E-4
3536,42787	-1.089733661824314383e-04
3537,50016	9,93383E-4
3538,57201	0,00105
3539,64343	-9.888880152966294645e-06
3540,71441	5,00844E-4
3541,78495	-5.408807756440707666e-04
3542,85505	6,38225E-5
3543,92472	7,52153E-4
3544,99396	3,95491E-4
3546,06275	0,00113
3547,13111	9,05068E-4
3548,19904	0,00123
3549,26653	0,00128
3550,33358	0,00207
3551,4002	0,00249
3552,46638	0,00446
3553,53213	0,00465
3554,59744	0,00602
3555,66232	0,00502
3556,72676	0,00666
3557,79077	0,00742
3558,85434	0,00715
3559,91748	0,00695
3560,98019	0,00712
3562,04245	0,00813
3563,10429	0,00824
3564,16569	0,00864
3565,22666	0,00784
3566,28719	0,00562
3567,34729	0,00555
3568,40695	0,0046
3569,46618	0,00425
3570,52498	0,00459
3571,58335	0,00428
3572,64128	0,00404
3573,69877	0,00298
3574,75584	0,00309
3575,81247	0,00361
3576,86867	0,00348
3577,92443	0,00291
3578,97977	0,00277
3580,03467	0,00234
3581,08913	0,00246
3582,14317	6,73187E-4
3583,19677	0,0022
3584,24994	5,21944E-4
3585,30268	0,00127
3586,35499	9,97872E-4
3587,40686	0,00116
3588,45831	2,07787E-4
3589,50932	-4.813185252791483590e-04
3590,5599	3,42167E-6
3591,61004	2,5201E-4
3592,65976	8,12803E-4
3593,70905	8,93857E-4
3594,7579	7,29452E-4
3595,80633	0,00128
3596,85432	8,37902E-4
3597,90188	0,00173