"FILE:FL2"
"REM: TLD 36W/865       (QNTM)"
"LIMS: 300- 900NM"
"INT:  1NM"
"DATE:08/23 16:32"
"MIN:  300NM  1.518E-04"
"MAX:  546NM  7.491E-01"
 300  1.518E-04
 301  3.355E-04
 302  2.197E-04
 303  3.240E-04
 304  4.602E-04
 305  2.090E-04
 306  3.772E-04
 307  4.727E-04
 308  7.650E-04
 309  1.180E-03
 310  1.939E-03
 311  2.613E-03
 312  3.270E-03
 313  3.507E-03
 314  3.523E-03
 315  3.146E-03
 316  2.540E-03
 317  1.860E-03
 318  1.342E-03
 319  9.521E-04
 320  7.133E-04
 321  6.491E-04
 322  7.539E-04
 323  7.737E-04
 324  8.205E-04
 325  7.852E-04
 326  7.776E-04
 327  8.233E-04
 328  7.893E-04
 329  7.038E-04
 330  9.043E-04
 331  1.076E-03
 332  1.143E-03
 333  1.309E-03
 334  1.348E-03
 335  1.387E-03
 336  1.327E-03
 337  1.097E-03
 338  8.709E-04
 339  7.444E-04
 340  6.197E-04
 341  6.390E-04
 342  5.405E-04
 343  5.834E-04
 344  4.636E-04
 345  5.065E-04
 346  5.261E-04
 347  5.227E-04
 348  4.968E-04
 349  5.886E-04
 350  6.202E-04
 351  6.095E-04
 352  6.207E-04
 353  6.111E-04
 354  6.218E-04
 355  6.525E-04
 356  6.847E-04
 357  6.576E-04
 358  9.434E-04
 359  1.592E-03
 360  3.372E-03
 361  7.113E-03
 362  1.201E-02
 363  1.735E-02
 364  2.212E-02
 365  2.511E-02
 366  2.492E-02
 367  2.182E-02
 368  1.711E-02
 369  1.192E-02
 370  7.279E-03
 371  3.681E-03
 372  2.003E-03
 373  1.406E-03
 374  1.303E-03
 375  1.386E-03
 376  1.601E-03
 377  1.749E-03
 378  2.051E-03
 379  2.213E-03
 380  2.395E-03
 381  2.491E-03
 382  2.491E-03
 383  2.408E-03
 384  2.286E-03
 385  2.197E-03
 386  2.112E-03
 387  2.080E-03
 388  2.038E-03
 389  2.021E-03
 390  2.028E-03
 391  2.095E-03
 392  2.102E-03
 393  2.166E-03
 394  2.196E-03
 395  2.314E-03
 396  2.473E-03
 397  2.935E-03
 398  4.109E-03
 399  6.871E-03
 400  1.305E-02
 401  2.375E-02
 402  3.645E-02
 403  4.980E-02
 404  6.131E-02
 405  6.815E-02
 406  6.706E-02
 407  5.950E-02
 408  4.895E-02
 409  3.786E-02
 410  2.805E-02
 411  2.188E-02
 412  1.997E-02
 413  2.025E-02
 414  2.169E-02
 415  2.381E-02
 416  2.619E-02
 417  2.868E-02
 418  3.143E-02
 419  3.423E-02
 420  3.703E-02
 421  3.992E-02
 422  4.307E-02
 423  4.639E-02
 424  4.989E-02
 425  5.349E-02
 426  5.725E-02
 427  6.113E-02
 428  6.562E-02
 429  7.222E-02
 430  8.368E-02
 431  1.057E-01
 432  1.422E-01
 433  1.966E-01
 434  2.494E-01
 435  2.963E-01
 436  3.264E-01
 437  3.256E-01
 438  2.979E-01
 439  2.616E-01
 440  2.091E-01
 441  1.653E-01
 442  1.346E-01
 443  1.213E-01
 444  1.169E-01
 445  1.168E-01
 446  1.177E-01
 447  1.185E-01
 448  1.192E-01
 449  1.196E-01
 450  1.197E-01
 451  1.199E-01
 452  1.196E-01
 453  1.192E-01
 454  1.185E-01
 455  1.175E-01
 456  1.164E-01
 457  1.153E-01
 458  1.143E-01
 459  1.124E-01
 460  1.110E-01
 461  1.093E-01
 462  1.077E-01
 463  1.059E-01
 464  1.041E-01
 465  1.021E-01
 466  1.003E-01
 467  9.824E-02
 468  9.612E-02
 469  9.405E-02
 470  9.176E-02
 471  8.951E-02
 472  8.729E-02
 473  8.508E-02
 474  8.293E-02
 475  8.097E-02
 476  7.941E-02
 477  7.872E-02
 478  7.944E-02
 479  8.233E-02
 480  8.818E-02
 481  9.782E-02
 482  1.105E-01
 483  1.302E-01
 484  1.494E-01
 485  1.674E-01
 486  1.831E-01
 487  1.939E-01
 488  1.984E-01
 489  1.982E-01
 490  1.943E-01
 491  1.865E-01
 492  1.761E-01
 493  1.653E-01
 494  1.537E-01
 495  1.429E-01
 496  1.298E-01
 497  1.191E-01
 498  1.089E-01
 499  9.903E-02
 500  8.921E-02
 501  7.972E-02
 502  7.051E-02
 503  6.152E-02
 504  5.357E-02
 505  4.699E-02
 506  4.152E-02
 507  3.723E-02
 508  3.404E-02
 509  3.174E-02
 510  2.992E-02
 511  2.850E-02
 512  2.732E-02
 513  2.627E-02
 514  2.533E-02
 515  2.446E-02
 516  2.368E-02
 517  2.295E-02
 518  2.231E-02
 519  2.175E-02
 520  2.123E-02
 521  2.071E-02
 522  2.034E-02
 523  1.998E-02
 524  1.970E-02
 525  1.947E-02
 526  1.936E-02
 527  1.943E-02
 528  1.970E-02
 529  2.042E-02
 530  2.186E-02
 531  2.443E-02
 532  2.881E-02
 533  3.664E-02
 534  4.956E-02
 535  7.012E-02
 536  9.730E-02
 537  1.441E-01
 538  2.035E-01
 539  2.786E-01
 540  3.649E-01
 541  4.542E-01
 542  5.461E-01
 543  6.287E-01
 544  6.921E-01
 545  7.337E-01
 546  7.491E-01
 547  7.299E-01
 548  6.801E-01
 549  6.058E-01
 550  5.164E-01
 551  4.185E-01
 552  3.254E-01
 553  2.577E-01
 554  1.890E-01
 555  1.445E-01
 556  1.121E-01
 557  8.841E-02
 558  7.004E-02
 559  5.225E-02
 560  4.354E-02
 561  3.795E-02
 562  3.463E-02
 563  3.265E-02
 564  3.149E-02
 565  3.078E-02
 566  3.029E-02
 567  2.998E-02
 568  2.981E-02
 569  2.980E-02
 570  3.012E-02
 571  3.104E-02
 572  3.322E-02
 573  3.770E-02
 574  4.490E-02
 575  5.560E-02
 576  6.959E-02
 577  8.579E-02
 578  1.017E-01
 579  1.209E-01
 580  1.372E-01
 581  1.518E-01
 582  1.655E-01
 583  1.791E-01
 584  1.930E-01
 585  2.055E-01
 586  2.163E-01
 587  2.236E-01
 588  2.255E-01
 589  2.216E-01
 590  2.126E-01
 591  1.996E-01
 592  1.837E-01
 593  1.664E-01
 594  1.486E-01
 595  1.334E-01
 596  1.159E-01
 597  1.024E-01
 598  9.131E-02
 599  8.255E-02
 600  7.585E-02
 601  7.035E-02
 602  6.544E-02
 603  6.198E-02
 604  6.190E-02
 605  6.817E-02
 606  8.378E-02
 607  1.217E-01
 608  1.794E-01
 609  2.520E-01
 610  3.308E-01
 611  4.047E-01
 612  4.530E-01
 613  4.652E-01
 614  4.431E-01
 615  3.935E-01
 616  3.303E-01
 617  2.666E-01
 618  2.154E-01
 619  1.816E-01
 620  1.611E-01
 621  1.499E-01
 622  1.447E-01
 623  1.421E-01
 624  1.401E-01
 625  1.383E-01
 626  1.361E-01
 627  1.338E-01
 628  1.317E-01
 629  1.291E-01
 630  1.245E-01
 631  1.176E-01
 632  1.073E-01
 633  9.361E-02
 634  7.872E-02
 635  6.332E-02
 636  4.964E-02
 637  3.952E-02
 638  3.332E-02
 639  3.039E-02
 640  2.947E-02
 641  2.951E-02
 642  2.990E-02
 643  3.026E-02
 644  3.037E-02
 645  3.022E-02
 646  3.005E-02
 647  3.025E-02
 648  3.094E-02
 649  3.192E-02
 650  3.301E-02
 651  3.373E-02
 652  3.352E-02
 653  3.233E-02
 654  3.041E-02
 655  2.810E-02
 656  2.586E-02
 657  2.425E-02
 658  2.372E-02
 659  2.427E-02
 660  2.555E-02
 661  2.721E-02
 662  2.892E-02
 663  3.026E-02
 664  3.071E-02
 665  3.031E-02
 666  2.904E-02
 667  2.697E-02
 668  2.461E-02
 669  2.241E-02
 670  2.070E-02
 671  1.950E-02
 672  1.876E-02
 673  1.838E-02
 674  1.819E-02
 675  1.802E-02
 676  1.782E-02
 677  1.769E-02
 678  1.771E-02
 679  1.768E-02
 680  1.790E-02
 681  1.820E-02
 682  1.848E-02
 683  1.900E-02
 684  1.981E-02
 685  2.102E-02
 686  2.235E-02
 687  2.367E-02
 688  2.443E-02
 689  2.444E-02
 690  2.353E-02
 691  2.208E-02
 692  2.009E-02
 693  1.796E-02
 694  1.584E-02
 695  1.381E-02
 696  1.192E-02
 697  1.015E-02
 698  8.611E-03
 699  7.485E-03
 700  7.139E-03
 701  7.901E-03
 702  9.994E-03
 703  1.379E-02
 704  1.945E-02
 705  2.673E-02
 706  3.499E-02
 707  4.318E-02
 708  4.994E-02
 709  5.439E-02
 710  5.594E-02
 711  5.433E-02
 712  4.994E-02
 713  4.331E-02
 714  3.564E-02
 715  2.764E-02
 716  2.033E-02
 717  1.422E-02
 718  9.384E-03
 719  6.074E-03
 720  4.350E-03
 721  3.586E-03
 722  3.281E-03
 723  3.155E-03
 724  3.067E-03
 725  3.006E-03
 726  2.934E-03
 727  2.862E-03
 728  2.778E-03
 729  2.704E-03
 730  2.629E-03
 731  2.563E-03
 732  2.444E-03
 733  2.305E-03
 734  2.224E-03
 735  2.112E-03
 736  2.048E-03
 737  2.001E-03
 738  2.024E-03
 739  2.127E-03
 740  2.318E-03
 741  2.494E-03
 742  2.684E-03
 743  2.840E-03
 744  2.875E-03
 745  2.824E-03
 746  2.670E-03
 747  2.474E-03
 748  2.297E-03
 749  2.054E-03
 750  1.927E-03
 751  1.737E-03
 752  1.693E-03
 753  1.681E-03
 754  1.955E-03
 755  2.779E-03
 756  4.549E-03
 757  7.539E-03
 758  1.145E-02
 759  1.548E-02
 760  1.865E-02
 761  1.982E-02
 762  1.897E-02
 763  1.622E-02
 764  1.243E-02
 765  8.501E-03
 766  5.440E-03
 767  3.843E-03
 768  3.535E-03
 769  3.664E-03
 770  3.930E-03
 771  3.953E-03
 772  3.629E-03
 773  3.187E-03
 774  2.595E-03
 775  2.035E-03
 776  1.506E-03
 777  1.216E-03
 778  1.072E-03
 779  9.476E-04
 780  8.915E-04
 781  9.638E-04
 782  1.126E-03
 783  1.491E-03
 784  1.918E-03
 785  2.226E-03
 786  2.436E-03
 787  2.465E-03
 788  2.259E-03
 789  1.971E-03
 790  1.558E-03
 791  1.224E-03
 792  9.804E-04
 793  8.701E-04
 794  8.215E-04
 795  7.826E-04
 796  7.647E-04
 797  7.675E-04
 798  7.494E-04
 799  7.520E-04
 800  7.868E-04
 801  8.750E-04
 802  1.093E-03
 803  1.462E-03
 804  2.028E-03
 805  2.956E-03
 806  4.815E-03
 807  8.290E-03
 808  1.469E-02
 809  2.338E-02
 810  3.259E-02
 811  4.051E-02
 812  4.442E-02
 813  4.360E-02
 814  3.861E-02
 815  3.012E-02
 816  2.090E-02
 817  1.337E-02
 818  8.602E-03
 819  6.865E-03
 820  6.444E-03
 821  6.317E-03
 822  5.809E-03
 823  5.424E-03
 824  5.303E-03
 825  5.854E-03
 826  7.351E-03
 827  9.819E-03
 828  1.250E-02
 829  1.470E-02
 830  1.581E-02
 831  1.549E-02
 832  1.374E-02
 833  1.106E-02
 834  8.011E-03
 835  5.101E-03
 836  2.762E-03
 837  1.336E-03
 838  7.486E-04
 839  6.175E-04
 840  6.312E-04
 841  6.818E-04
 842  6.954E-04
 843  7.343E-04
 844  7.239E-04
 845  7.504E-04
 846  7.403E-04
 847  9.027E-04
 848  1.128E-03
 849  1.516E-03
 850  1.968E-03
 851  2.384E-03
 852  2.552E-03
 853  2.508E-03
 854  2.224E-03
 855  1.827E-03
 856  1.338E-03
 857  8.856E-04
 858  5.707E-04
 859  4.830E-04
 860  4.584E-04
 861  5.231E-04
 862  5.244E-04
 863  5.639E-04
 864  5.653E-04
 865  6.438E-04
 866  5.804E-04
 867  5.428E-04
 868  7.249E-04
 869  4.669E-04
 870  4.028E-04
 871  4.428E-04
 872  6.266E-04
 873  1.243E-03
 874  2.805E-03
 875  5.767E-03
 876  9.913E-03
 877  1.404E-02
 878  1.729E-02
 879  1.846E-02
 880  1.767E-02
 881  1.504E-02
 882  1.112E-02
 883  6.918E-03
 884  3.400E-03
 885  1.409E-03
 886  5.914E-04
 887  5.253E-04
 888  1.026E-03
 889  2.219E-03
 890  4.896E-03
 891  8.742E-03
 892  1.286E-02
 893  1.624E-02
 894  1.784E-02
 895  1.758E-02
 896  1.543E-02
 897  1.178E-02
 898  7.729E-03
 899  3.992E-03
 900  1.793E-03
